"Dataset 163336 average 1-40 - C:\Program Files\Shimadzu\UVProbe\Data\sample.spc"
"Wavelength nm."	"R%"
240.00	37.589
242.00	38.627
244.00	39.716
246.00	41.096
248.00	41.924
250.00	43.267
252.00	44.097
254.00	44.865
256.00	45.761
258.00	46.802
260.00	47.348
262.00	48.060
264.00	48.586
266.00	49.346
268.00	49.970
270.00	50.384
272.00	51.225
274.00	51.262
276.00	52.068
278.00	52.823
280.00	52.856
282.00	53.380
284.00	54.254
286.00	55.039
288.00	55.586
290.00	56.242
292.00	57.112
294.00	57.121
296.00	57.403
298.00	57.753
300.00	57.397
302.00	57.818
304.00	57.941
306.00	57.593
308.00	57.972
310.00	58.186
312.00	58.214
314.00	58.594
316.00	58.548
318.00	58.159
320.00	58.595
322.00	59.025
324.00	58.738
326.00	59.044
328.00	59.404
330.00	59.736
332.00	59.805
334.00	60.167
336.00	60.613
338.00	61.007
340.00	61.007
342.00	61.503
344.00	61.827
346.00	62.066
348.00	62.573
350.00	63.252
352.00	63.851
354.00	64.360
356.00	65.303
358.00	65.553
360.00	66.744
362.00	67.858
364.00	68.756
366.00	69.451
368.00	70.275
370.00	70.587
372.00	71.436
374.00	71.185
376.00	71.251
378.00	71.437
380.00	71.202
382.00	71.424
384.00	71.061
386.00	70.895
388.00	70.645
390.00	70.703
392.00	70.476
394.00	70.282
396.00	70.094
398.00	70.085
400.00	69.943
402.00	70.014
404.00	69.815
406.00	69.826
408.00	69.600
410.00	69.383
412.00	69.209
414.00	69.162
416.00	69.105
418.00	69.077
420.00	68.849
422.00	68.597
424.00	68.663
426.00	68.536
428.00	68.323
430.00	68.082
432.00	68.068
434.00	67.792
436.00	67.671
438.00	67.588
440.00	67.387
442.00	67.557
444.00	67.374
446.00	67.064
448.00	67.080
450.00	66.887
452.00	66.653
454.00	66.528
456.00	66.549
458.00	66.401
460.00	66.376
462.00	66.184
464.00	66.171
466.00	65.991
468.00	65.928
470.00	65.916
472.00	65.870
474.00	65.922
476.00	65.785
478.00	65.604
480.00	65.747
482.00	65.765
484.00	65.777
486.00	65.829
488.00	65.826
490.00	65.660
492.00	65.945
494.00	65.886
496.00	66.044
498.00	66.177
500.00	66.404
502.00	66.458
504.00	66.710
506.00	66.775
508.00	66.829
510.00	67.393
512.00	67.175
514.00	67.428
516.00	67.665
518.00	67.807
520.00	67.988
522.00	68.078
524.00	68.448
526.00	68.506
528.00	68.844
530.00	68.800
532.00	69.200
534.00	69.322
536.00	69.499
538.00	69.777
540.00	69.792
542.00	70.056
544.00	70.048
546.00	70.288
548.00	70.522
550.00	70.742
552.00	70.732
554.00	71.066
556.00	71.265
558.00	71.324
560.00	71.573
562.00	71.718
564.00	71.796
566.00	71.927
568.00	72.082
570.00	71.977
572.00	71.956
574.00	72.104
576.00	72.267
578.00	72.451
580.00	72.679
582.00	72.915
584.00	73.204
586.00	73.320
588.00	73.641
590.00	73.854
592.00	73.807
594.00	73.890
596.00	74.134
598.00	74.236
600.00	74.274
602.00	74.604
604.00	74.512
606.00	74.831
608.00	74.984
610.00	74.949
612.00	75.203
614.00	75.154
616.00	75.376
618.00	75.623
620.00	75.615
622.00	75.810
624.00	75.961
626.00	76.109
628.00	76.115
630.00	76.254
632.00	76.412
634.00	76.458
636.00	76.692
638.00	76.817
640.00	76.676
642.00	76.942
644.00	77.248
646.00	77.204
648.00	77.207
650.00	77.132
652.00	77.761
654.00	77.723
656.00	77.536
658.00	77.935
660.00	77.994
662.00	78.149
664.00	78.130
666.00	78.176
668.00	78.531
670.00	78.362
672.00	78.880
674.00	78.664
676.00	78.904
678.00	79.025
680.00	78.889
682.00	78.973
684.00	78.886
686.00	79.180
688.00	79.365
690.00	79.752
692.00	79.629
694.00	79.601
696.00	79.648
698.00	79.939
700.00	79.993
702.00	79.919
704.00	79.480
706.00	80.095
708.00	79.681
710.00	80.325
712.00	80.145
714.00	80.040
716.00	80.605
718.00	80.687
720.00	79.935
722.00	80.861
724.00	81.253
726.00	80.789
728.00	80.756
730.00	80.563
732.00	80.694
734.00	80.930
736.00	81.085
738.00	80.534
740.00	80.614
742.00	80.362
744.00	80.569
746.00	80.548
748.00	80.897
750.00	80.761
752.00	80.465
754.00	81.044
756.00	80.753
758.00	81.465
760.00	81.635
762.00	80.806
764.00	80.744
766.00	81.471
768.00	81.031
770.00	82.362
772.00	81.498
774.00	81.572
776.00	82.139
778.00	81.440
780.00	80.952
782.00	81.246
784.00	81.622
786.00	81.601
788.00	81.125
790.00	81.244
792.00	82.770
794.00	82.308
796.00	81.455
798.00	82.017
800.00	81.735
802.00	82.567
804.00	82.115
806.00	82.220
808.00	82.679
810.00	82.528
812.00	84.515
814.00	82.800
816.00	82.371
818.00	83.410
820.00	81.909
822.00	83.734
824.00	82.763
826.00	81.676
828.00	83.110
830.00	82.950
832.00	81.974
834.00	82.992
836.00	82.174
838.00	83.338
840.00	83.392
842.00	83.313
844.00	82.774
846.00	83.252
848.00	83.627
850.00	82.973
852.00	82.182
854.00	83.750
856.00	79.226
858.00	53.559
860.00	77.669
862.00	69.985
864.00	62.820
866.00	85.879
868.00	118.756
870.00	29.255
872.00	64.968
874.00	57.526
876.00	386.852
878.00	-38.931
880.00	-85.391
882.00	432.364
884.00	-157.321
886.00	58.400
888.00	-28.229
890.00	-10.776
892.00	83.552
894.00	601.849
896.00	134.406
898.00	621.997
900.00	139.490
902.00	414.798
904.00	-266.402
906.00	279.975
908.00	60.282
910.00	93.782
912.00	219.871
914.00	-53.394
916.00	236.131
918.00	99.349
920.00	-10.435
922.00	111.198
924.00	34.865
926.00	162.188
928.00	40.635
930.00	133.416
932.00	130.347
934.00	182.148
936.00	67.100
938.00	49.545
940.00	96.504
942.00	164.325
944.00	-16.843
946.00	116.692
948.00	-8.567
950.00	155.532
952.00	42.508
954.00	79.951
956.00	76.137
958.00	31.113
960.00	52.612
962.00	94.889
964.00	23.666
966.00	137.340
968.00	13.475
970.00	104.787
972.00	25.471
974.00	81.133
976.00	95.837
978.00	107.420
980.00	127.381
982.00	65.091
984.00	110.533
986.00	100.055
988.00	51.004
990.00	116.414
992.00	59.412
994.00	91.034
996.00	77.674
998.00	89.604
1000.00	80.635
1002.00	79.950
1004.00	83.575
1006.00	78.013
1008.00	86.031
1010.00	77.842
1012.00	83.968
1014.00	81.204
1016.00	79.188
1018.00	83.073
1020.00	80.448
1022.00	81.579
1024.00	83.003
1026.00	80.648
1028.00	81.408
1030.00	80.753
1032.00	80.885
1034.00	81.637
1036.00	81.289
1038.00	81.158
1040.00	83.718
1042.00	77.701
1044.00	85.213
1046.00	79.571
1048.00	83.783
1050.00	82.377
1052.00	80.584
1054.00	80.983
1056.00	82.072
1058.00	84.737
1060.00	81.240
1062.00	81.959
1064.00	82.749
1066.00	81.678
1068.00	82.369
1070.00	83.258
1072.00	81.370
1074.00	85.435
1076.00	81.834
1078.00	83.500
1080.00	83.439
1082.00	80.558
1084.00	82.951
1086.00	82.023
1088.00	83.152
1090.00	85.519
1092.00	82.034
1094.00	83.738
1096.00	82.442
1098.00	83.506
1100.00	82.241
1102.00	84.889
1104.00	80.332
1106.00	84.498
1108.00	82.215
1110.00	86.003
1112.00	84.461
1114.00	82.740
1116.00	85.226
1118.00	83.005
1120.00	83.695
1122.00	83.370
1124.00	82.239
1126.00	85.875
1128.00	84.249
1130.00	83.861
1132.00	86.334
1134.00	83.644
1136.00	82.773
1138.00	85.040
1140.00	80.976
1142.00	86.254
1144.00	83.718
1146.00	84.970
1148.00	84.383
1150.00	84.104
1152.00	85.074
1154.00	84.317
1156.00	85.570
1158.00	87.392
1160.00	84.963
1162.00	85.384
1164.00	85.141
1166.00	84.243
1168.00	85.661
1170.00	86.015
1172.00	85.538
1174.00	87.024
1176.00	83.906
1178.00	87.941
1180.00	84.291
1182.00	85.540
1184.00	86.784
1186.00	84.415
1188.00	86.065
1190.00	85.148
1192.00	85.269
1194.00	87.096
1196.00	86.488
1198.00	84.978
1200.00	86.867
1202.00	83.449
1204.00	87.806
1206.00	85.049
1208.00	86.468
1210.00	86.878
1212.00	85.729
1214.00	86.125
1216.00	85.851
1218.00	85.406
1220.00	86.538
1222.00	83.716
1224.00	85.441
1226.00	85.380
1228.00	87.326
1230.00	86.345
1232.00	86.143
1234.00	87.013
1236.00	87.310
1238.00	85.816
1240.00	88.107
1242.00	84.096
1244.00	84.515
1246.00	87.396
1248.00	85.315
1250.00	86.072
1252.00	87.533
1254.00	86.299
1256.00	87.194
1258.00	86.493
1260.00	85.542
1262.00	86.523
1264.00	85.839
1266.00	86.638
1268.00	87.985
1270.00	86.384
1272.00	88.761
1274.00	85.037
1276.00	86.806
1278.00	87.552
1280.00	87.179
1282.00	87.226
1284.00	86.775
1286.00	84.225
1288.00	87.323
1290.00	88.114
1292.00	86.718
1294.00	89.366
1296.00	85.581
1298.00	87.474
1300.00	88.022
1302.00	87.005
1304.00	86.250
1306.00	88.326
1308.00	85.387
1310.00	88.118
1312.00	85.914
1314.00	87.267
1316.00	89.562
1318.00	87.609
1320.00	89.653
1322.00	90.284
1324.00	87.900
1326.00	87.304
1328.00	87.839
1330.00	88.677
1332.00	88.031
1334.00	90.628
1336.00	88.209
1338.00	87.566
1340.00	88.750
1342.00	89.309
1344.00	89.665
1346.00	88.632
1348.00	87.578
1350.00	92.176
1352.00	90.323
1354.00	90.750
1356.00	91.475
1358.00	89.645
1360.00	88.899
1362.00	92.718
1364.00	84.734
1366.00	92.501
1368.00	86.689
1370.00	90.030
1372.00	91.831
1374.00	90.243
1376.00	88.845
1378.00	92.736
1380.00	87.295
1382.00	90.356
1384.00	94.774
1386.00	92.600
1388.00	92.105
1390.00	91.403
1392.00	94.076
1394.00	93.958
1396.00	90.223
1398.00	96.065
1400.00	89.347
1402.00	96.638
1404.00	93.704
1406.00	93.258
1408.00	95.454
1410.00	95.117
1412.00	98.533
1414.00	93.868
1416.00	99.452
1418.00	97.192
1420.00	95.402
1422.00	94.708
1424.00	99.474
1426.00	93.266
1428.00	101.138
1430.00	96.036
1432.00	100.444
1434.00	99.862
1436.00	98.473
1438.00	99.211
1440.00	94.474
1442.00	100.657
1444.00	99.845
1446.00	96.534
1448.00	100.528
1450.00	95.554
1452.00	102.861
1454.00	98.307
1456.00	97.314
1458.00	93.465
1460.00	101.321
1462.00	93.884
1464.00	102.368
1466.00	95.234
1468.00	100.454
1470.00	99.622
1472.00	96.726
1474.00	99.063
1476.00	94.332
1478.00	99.310
1480.00	101.489
1482.00	95.514
1484.00	98.563
1486.00	99.103
1488.00	97.451
1490.00	99.009
1492.00	97.227
1494.00	92.845
1496.00	99.024
1498.00	94.274
1500.00	100.341
1502.00	95.169
1504.00	97.813
1506.00	97.774
1508.00	94.069
1510.00	99.114
1512.00	97.979
1514.00	96.048
1516.00	93.873
1518.00	95.916
1520.00	98.529
1522.00	98.670
1524.00	95.170
1526.00	98.171
1528.00	97.857
1530.00	94.776
1532.00	102.624
1534.00	88.371
1536.00	98.925
1538.00	98.389
1540.00	92.403
1542.00	98.778
1544.00	95.999
1546.00	94.585
1548.00	93.202
1550.00	95.476
1552.00	94.613
1554.00	99.037
1556.00	96.024
1558.00	94.023
1560.00	100.466
1562.00	90.376
1564.00	101.465
1566.00	91.798
1568.00	94.971
1570.00	97.961
1572.00	92.758
1574.00	94.430
1576.00	96.729
1578.00	91.366
1580.00	94.336
1582.00	100.775
1584.00	89.647
1586.00	96.357
1588.00	89.906
1590.00	95.688
1592.00	95.764
1594.00	93.291
1596.00	96.416
1598.00	99.784
1600.00	93.693
1602.00	94.476
1604.00	93.136
1606.00	91.887
1608.00	96.613
1610.00	93.670
1612.00	98.889
1614.00	98.729
1616.00	89.081
1618.00	101.454
1620.00	93.215
1622.00	97.256
1624.00	97.128
1626.00	94.164
1628.00	96.985
1630.00	93.191
1632.00	98.273
1634.00	96.501
1636.00	99.127
1638.00	90.400
1640.00	101.153
1642.00	85.476
1644.00	94.640
1646.00	90.551
1648.00	93.109
1650.00	94.214
1652.00	88.182
1654.00	96.081
1656.00	84.570
1658.00	93.873
1660.00	90.357
1662.00	87.872
1664.00	83.694
1666.00	88.135
1668.00	92.993
1670.00	91.000
1672.00	90.910
1674.00	90.094
1676.00	105.472
1678.00	88.934
1680.00	93.754
1682.00	93.885
1684.00	87.738
1686.00	78.097
1688.00	97.037
1690.00	94.761
1692.00	85.446
1694.00	102.456
1696.00	91.071
1698.00	92.838
1700.00	93.225
1702.00	106.634
1704.00	92.975
1706.00	97.383
1708.00	93.227
1710.00	101.151
1712.00	85.807
1714.00	77.940
1716.00	80.609
1718.00	103.841
1720.00	83.045
1722.00	86.111
1724.00	95.634
1726.00	87.682
1728.00	82.467
1730.00	84.805
1732.00	87.121
1734.00	88.849
1736.00	113.383
1738.00	101.620
1740.00	84.135
1742.00	98.200
1744.00	96.569
1746.00	105.001
1748.00	106.466
1750.00	96.776
1752.00	97.286
1754.00	89.998
1756.00	97.820
1758.00	94.430
1760.00	87.698
1762.00	77.203
1764.00	96.151
1766.00	87.113
1768.00	79.780
1770.00	105.141
1772.00	93.226
1774.00	93.688
1776.00	103.940
1778.00	87.677
1780.00	92.180
1782.00	117.800
1784.00	91.538
1786.00	92.421
1788.00	107.871
1790.00	103.962
1792.00	88.494
1794.00	69.647
1796.00	86.437
1798.00	74.297
1800.00	103.842
1802.00	96.643
1804.00	99.359
1806.00	88.221
1808.00	97.562
1810.00	85.860
1812.00	95.306
1814.00	88.560
1816.00	104.570
1818.00	85.457
1820.00	70.562
1822.00	104.465
1824.00	111.528
1826.00	79.150
1828.00	91.824
1830.00	69.245
1832.00	75.381
1834.00	101.136
1836.00	91.046
1838.00	107.054
1840.00	92.487
1842.00	96.763
1844.00	105.137
1846.00	73.238
1848.00	88.519
1850.00	76.259
1852.00	95.323
1854.00	84.217
1856.00	93.048
1858.00	133.071
1860.00	95.229
1862.00	94.859
1864.00	82.673
1866.00	111.709
1868.00	92.266
1870.00	58.380
1872.00	56.195
1874.00	103.173
1876.00	67.218
1878.00	81.398
1880.00	96.796
1882.00	112.710
1884.00	90.783
1886.00	112.957
1888.00	94.274
1890.00	61.836
1892.00	65.180
1894.00	119.514
1896.00	123.277
1898.00	91.109
1900.00	44.242
1902.00	124.203
1904.00	130.788
1906.00	251.147
1908.00	118.250
1910.00	127.863
1912.00	64.855
1914.00	90.427
1916.00	105.232
1918.00	129.405
1920.00	184.381
1922.00	168.609
1924.00	129.141
1926.00	114.098
1928.00	121.160
1930.00	100.222
1932.00	142.061
1934.00	138.254
1936.00	119.705
1938.00	62.863
1940.00	174.879
1942.00	102.636
1944.00	58.207
1946.00	102.952
1948.00	110.060
1950.00	122.605
1952.00	81.761
1954.00	113.018
1956.00	96.667
1958.00	147.009
1960.00	100.991
1962.00	144.623
1964.00	119.406
1966.00	85.643
1968.00	126.978
1970.00	117.427
1972.00	151.788
1974.00	125.245
1976.00	95.656
1978.00	151.601
1980.00	57.036
1982.00	146.875
1984.00	128.424
1986.00	127.511
1988.00	50.642
1990.00	124.679
1992.00	149.319
1994.00	123.599
1996.00	95.426
1998.00	175.921
2000.00	136.647
