# Created by:        SpecsLab2, Version 2.77-r27212
# 
# XY-Serializer Export Settings: as follows
#   Comment Prefix:           #
#   Counts Per Second:        yes
#   Kinetic Energy Axis:      yes
#   Separate Scan Data:       no
#   Separate Channel Data:    no
#   External Channel Data:    no
#   Transmission Function:    no
#   ErrorBar:                 no
# 
# Group:             05 Gold nach MCD kalib 2100V Det
#
# values in kinetic energy
# Region:            Au4f 10pass MedArea
# Acquisition Date:  07/31/13 13:53:18
# Analysis Method:   XPS
# Analyzer:          PHOIBOS HSA3500 DLSEGD 150 R6[HWType 30:15] DLSEGD
# Analyzer Lens:     MediumArea:1.5kV
# Analyzer Slit:     5:7x20\2:open
# Scan Mode:         Snapshot (FAT)
# Number of Scans:   40
# Curves/Scan:       1
# Values/Curve:      8
# Dwell Time:        0.5
# Excitation Energy: 1253.6
# Kinetic Energy:    1161.11
# Pass Energy:       10
# Bias Voltage:      80
# Detector Voltage:  2100
# Eff. Workfunction: 4.387
# Source:            XRayDummy
# Comment:           
#
# Cycle: 0
#
# Cycle: 0, Curve: 0
#
# ColumnLabels: energy counts/s
#
1159.9574  8.866199
1159.9774  7.316298
1159.9974  7.5198764
1160.0173  8.21712
1160.0373  8.85109
1160.0572  7.567716
1160.0772  8.892288
1160.0971  9.2213165
1160.1171  6.5292496
1160.137  8.310153
1160.157  8.657283
1160.1769  8.973965
1160.1969  8.027445
1160.2168  9.78956
1160.2368  8.085834
1160.2567  8.31543
1160.2767  9.486139
1160.2966  9.332043
1160.3166  7.558154
1160.3365  7.2698414
1160.3565  8.271648
1160.3764  7.7853394
1160.3964  7.5603944
1160.4163  8.0966067
1160.4363  9.34557
1160.4563  8.7108078
1160.4762  8.0089328
1160.4962  10.060224
1160.5161  8.8020465
1160.5361  8.91964
1160.556  8.8208819
1160.576  7.1933171
1160.5959  9.7843564
1160.6159  7.6349059
1160.6358  7.2330283
1160.6558  10.0198
1160.6757  6.4917393
1160.6957  8.8976479
1160.7156  7.888001
1160.7356  8.1895641
1160.7555  6.8950656
1160.7755  9.0265284
1160.7954  7.6062688
1160.8154  7.0097244
1160.8353  9.4422772
1160.8553  7.5519828
1160.8753  7.7391009
1160.8952  7.6161708
1160.9152  8.5129506
1160.9351  7.8086692
1160.9551  7.2278549
1160.975  7.6713546
1160.995  7.378013
1161.0149  7.7896748
1161.0349  8.4610246
1161.0548  7.61631
1161.0748  9.2876352
1161.0947  8.1977776
1161.1147  7.5988646
1161.1346  8.7956706
1161.1546  8.5027103
1161.1745  8.475684
1161.1945  9.8689988
1161.2144  8.1921358
1161.2344  9.2775001
1161.2543  7.362684
1161.2743  8.9659543
1161.2942  7.909623
1161.3142  7.4656868
1161.3342  6.1932145
1161.3541  8.675901
1161.3741  7.0201151
1161.394  7.1468811
1161.414  7.5995229
1161.4339  6.7076383
1161.4539  8.4562663
1161.4738  10.179918
1161.4938  8.734671
1161.5137  6.2630568
1161.5337  7.4894475
1161.5536  8.297452
1161.5736  9.576444
1161.5935  8.396319
1161.6135  8.128073
1161.6334  6.6869632
1161.6534  6.8055983
1161.6733  8.35941
1161.6933  9.6042625
1161.7132  7.589967
1161.7332  7.84674
1161.7532  7.6927295
1161.7731  9.046994
1161.7931  7.080066
1161.813  7.556621
1161.833  9.221843
1161.8529  7.860615
1161.8729  8.7405195
1161.8928  9.51671
1161.9128  7.6020165
1161.9327  6.747272
1161.9527  8.4076025
1161.9726  7.4825775
1161.9926  7.7450224
1162.0125  9.24426
1162.0325  11.536938
1162.0524  8.765484
1162.0724  8.2994688
1162.0923  10.219803
1162.1123  7.6756064
1162.1323  9.514523
1162.1522  8.771949
1162.1722  9.68968
1162.1921  8.5222875
1162.2121  9.678315
1162.232  8.613171
1162.252  9.1128
1162.2719  9.598401
1162.2919  8.462598
1162.3118  7.558154
1162.3318  7.6628058
1162.3517  10.044144
1162.3717  8.6230025
1162.3916  7.7030433
1162.4116  8.4525015
1162.4315  9.54655
1162.4515  8.8044724
1162.4714  8.6005017
1162.4914  8.973909
1162.5113  8.3055208
1162.5313  9.0980328
1162.5512  8.6865537
1162.5712  8.2157175
1162.5912  9.6156606
1162.6111  7.7460939
1162.6311  9.0706084
1162.651  12.224156
1162.671  8.9578749
1162.6909  9.5418214
1162.7109  7.9955647
1162.7308  10.471234
1162.7508  7.3260072
1162.7707  8.9487135
1162.7907  7.7917875
1162.8106  8.940975
1162.8306  9.6539874
1162.8505  9.8957016
1162.8705  9.6399327
1162.8904  8.4221148
1162.9104  8.9858923
1162.9303  9.597247
1162.9503  8.385909
1162.9702  9.3995169
1162.9902  8.2413975
1163.0102  9.21855
1163.0301  8.7760627
1163.0501  9.81084
1163.07  9.5295007
1163.09  8.8518556
1163.1099  7.3912453
1163.1299  9.3702622
1163.1498  9.4422363
1163.1698  9.989199
1163.1897  9.1166536
1163.2097  8.4239887
1163.2296  9.1286632
1163.2496  8.2216638
1163.2695  10.141104
1163.2895  9.4915476
1163.3094  8.5775976
1163.3294  9.4903215
1163.3493  9.2098026
1163.3693  8.3311004
1163.3892  9.3527086
1163.4092  8.0898147
1163.4292  7.7491971
1163.4491  8.4068145
1163.4691  11.100443
1163.489  10.102752
1163.509  8.6354268
1163.5289  9.40281
1163.5489  9.5529875
1163.5688  9.131028
1163.5888  9.560772
1163.6087  8.89935
1163.6287  7.5167323
1163.6486  7.6997645
1163.6686  10.336298
1163.6885  8.6655
1163.7085  9.722685
1163.7284  10.771434
1163.7484  7.4104275
1163.7683  8.108155
1163.7883  8.765796
1163.8082  7.965087
1163.8282  8.322151
1163.8481  6.288492
1163.8681  8.926488
1163.8881  11.420052
1163.908  8.6505705
1163.928  8.8557945
1163.9479  10.700585
1163.9679  7.9259895
1163.9878  8.6906356
1164.0078  9.706473
1164.0277  11.842148
1164.0477  10.943244
1164.0676  9.0404928
1164.0876  11.688166
1164.1075  9.5197456
1164.1275  11.26086
1164.1474  11.294601
1164.1674  10.90089
1164.1873  10.446675
1164.2073  10.735143
1164.2272  11.367042
1164.2472  11.675775
1164.2672  10.552628
1164.2871  12.925749
1164.3071  11.111988
1164.327  9.6276278
1164.347  11.440656
1164.3669  11.480912
1164.3869  10.93642
1164.4068  10.409923
1164.4268  12.36027
1164.4467  12.457392
1164.4667  10.966777
1164.4866  14.216561
1164.5066  11.645785
1164.5265  11.996916
1164.5465  14.50744
1164.5664  10.95429
1164.5864  13.158272
1164.6063  13.157241
1164.6263  13.527718
1164.6462  16.833264
1164.6662  12.729612
1164.6862  15.903036
1164.7061  13.94742
1164.7261  15.767967
1164.746  14.795662
1164.766  15.134998
1164.7859  15.027019
1164.8059  15.306949
1164.8258  19.053922
1164.8458  18.793153
1164.8657  18.827286
1164.8857  17.287499
1164.9056  17.154885
1164.9256  18.278393
1164.9455  16.811751
1164.9655  17.998178
1164.9854  16.953732
1165.0054  19.128491
1165.0253  20.252453
1165.0453  20.26713
1165.0652  22.686984
1165.0852  20.71247
1165.1051  21.384783
1165.1251  22.364871
1165.1451  28.138804
1165.165  28.050478
1165.185  25.358459
1165.2049  24.26727
1165.2249  31.851097
1165.2448  27.691873
1165.2648  27.681296
1165.2847  29.661086
1165.3047  26.72557
1165.3246  31.634405
1165.3446  34.748096
1165.3645  30.702431
1165.3845  34.102093
1165.4044  29.948657
1165.4244  30.413516
1165.4443  38.720799
1165.4643  43.048057
1165.4842  42.515748
1165.5042  37.056419
1165.5241  45.538028
1165.5441  40.177136
1165.5641  42.982644
1165.584  44.065353
1165.604  46.573265
1165.6239  38.315811
1165.6439  38.796878
1165.6638  39.029408
1165.6838  53.076188
1165.7037  42.65436
1165.7237  43.656408
1165.7436  43.474508
1165.7636  48.904977
1165.7835  40.288947
1165.8035  45.441843
1165.8234  38.124449
1165.8434  33.68835
1165.8633  41.470976
1165.8833  47.855456
1165.9032  38.53436
1165.9232  32.049542
1165.9431  34.241872
1165.9631  31.593105
1165.9831  30.709914
1166.003  32.560338
1166.023  39.311048
1166.0429  31.250856
1166.0629  27.46729
1166.0828  32.832586
1166.1028  25.369374
1166.1227  30.169469
1166.1427  27.577173
1166.1626  24.499475
1166.1826  26.446583
1166.2025  22.91647
1166.2225  25.19499
1166.2424  23.69328
1166.2624  21.89109
1166.2823  19.939272
1166.3023  20.572194
1166.3222  18.71493
1166.3422  21.860784
1166.3621  19.266251
1166.3821  17.355622
1166.4021  17.883714
1166.422  18.238935
1166.442  17.889939
1166.4619  16.199887
1166.4819  18.089511
1166.5018  16.927013
1166.5218  16.813521
1166.5417  17.46266
1166.5617  14.240577
1166.5816  14.592187
1166.6016  13.120178
1166.6215  13.996887
1166.6415  20.189897
1166.6614  11.786678
1166.6814  13.608167
1166.7013  12.656656
1166.7213  13.690018
1166.7412  13.000072
1166.7612  13.461978
1166.7811  12.652379
1166.8011  11.659031
1166.8211  11.9828
1166.841  13.715095
1166.861  12.762728
1166.8809  11.202622
1166.9009  12.726431
1166.9208  11.734816
1166.9408  11.101346
1166.9607  10.453274
1166.9807  9.1832715
1167.0006  10.693518
1167.0206  12.241482
1167.0405  10.71447
1167.0605  11.803036
1167.0804  10.290827
1167.1004  10.256391
1167.1203  10.87304
1167.1403  13.153364
1167.1602  11.704516
1167.1802  9.4706984
1167.2001  9.0809052
1167.2201  11.410829
1167.2401  8.8352208
1167.26  11.011585
1167.28  9.8870288
1167.2999  8.4584643
1167.3199  9.8467655
1167.3398  10.544557
1167.3598  9.3883467
1167.3797  10.587972
1167.3997  8.4166759
1167.4196  8.7907559
1167.4396  11.275022
1167.4595  11.479482
1167.4795  11.57607
1167.4994  10.201191
1167.5194  9.62148
1167.5393  10.098872
1167.5593  10.57863
1167.5792  10.847799
1167.5992  10.916536
1167.6191  8.4441214
1167.6391  8.5939307
1167.659  10.336298
1167.679  12.276125
1167.699  10.600863
1167.7189  11.05677
1167.7389  9.174815
1167.7588  9.985833
1167.7788  10.451526
1167.7987  9.4968345
1167.8187  8.547074
1167.8386  6.6253755
1167.8586  11.901984
1167.8785  11.420052
1167.8985  12.582648
1167.9184  10.542613
1167.9384  9.9362575
1167.9583  9.97677
1167.9783  10.67192
1167.9982  11.914824
1168.0182  12.574652
1168.0382  12.358788
1168.0581  11.510573
1168.0781  13.56767
1168.098  11.164518
1168.118  13.669599
1168.1379  11.925264
1168.1579  14.149135
1168.1778  13.470712
1168.1978  12.90442
1168.2177  13.300611
1168.2377  14.46657
1168.2576  13.639833
1168.2776  13.91112
1168.2975  13.564634
1168.3175  13.016946
1168.3374  15.03936
1168.3574  14.880839
1168.3773  13.55165
1168.3973  14.191305
1168.4172  16.028155
1168.4372  16.344473
1168.4571  14.834728
1168.4771  17.239351
1168.4971  19.09367
1168.517  17.3487
1168.537  19.61191
1168.5569  17.052178
1168.5769  18.26132
1168.5968  17.827135
1168.6168  18.219412
1168.6367  26.151678
1168.6567  19.692818
1168.6766  22.787641
1168.6966  21.261748
1168.7165  25.546551
1168.7365  22.588522
1168.7564  23.772452
1168.7764  24.34006
1168.7963  23.067716
1168.8163  29.766461
1168.8362  32.55165
1168.8562  32.902493
1168.8761  30.102008
1168.8961  32.93394
1168.916  32.543392
1168.936  30.269138
1168.956  34.731847
1168.9759  32.023716
1168.9959  40.699898
1169.0158  39.784818
1169.0358  40.19002
1169.0557  41.939478
1169.0757  42.60228
1169.0956  41.482326
1169.1156  46.983909
1169.1355  46.506537
1169.1555  55.949605
1169.1754  51.115218
1169.1954  46.447864
1169.2153  55.367327
1169.2353  48.307388
1169.2552  54.448587
1169.2752  53.258128
1169.2951  49.400608
1169.3151  54.35771
1169.335  55.659242
1169.355  53.327501
1169.375  54.08689
1169.3949  51.725785
1169.4149  50.953054
1169.4348  58.303731
1169.4548  58.85942
1169.4747  60.090327
1169.4947  51.575324
1169.5146  54.175493
1169.5346  53.551318
1169.5545  52.948827
1169.5745  52.216524
1169.5944  47.581858
1169.6144  39.584869
1169.6343  36.064703
1169.6543  40.272023
1169.6742  46.216
1169.6942  39.643464
1169.7141  38.092356
1169.7341  33.452787
1169.754  36.358674
1169.774  30.933146
1169.794  33.289979
1169.8139  27.777991
1169.8339  25.827735
1169.8538  26.593496
1169.8738  31.541096
1169.8937  20.708942
1169.9137  24.037156
1169.9336  24.305615
1169.9536  19.842687
1169.9735  19.812848
1169.9935  21.56994
1170.0134  23.623254
1170.0334  18.23874
1170.0533  16.253126
1170.0733  19.206182
1170.0932  15.849629
1170.1132  18.306424
1170.1331  16.511904
1170.1531  15.580565
1170.173  16.549733
1170.193  16.575505
1170.213  15.292773
1170.2329  13.6692
1170.2529  15.267632
1170.2728  14.258898
1170.2928  13.864958
1170.3127  11.59245
1170.3327  14.448528
1170.3526  13.74753
1170.3726  12.362909
1170.3925  11.522094
1170.4125  11.707085
1170.4324  11.708075
1170.4524  10.693746
1170.4723  12.327317
1170.4923  11.510369
1170.5122  10.480577
1170.5322  11.059684
1170.5521  9.8953753
1170.5721  10.923053
1170.592  9.6733517
1170.612  9.6179727
1170.632  12.374453
1170.6519  8.3776077
1170.6719  9.3002563
1170.6918  7.6370192
1170.7118  10.43049
1170.7317  8.1519786
1170.7517  8.7930837
1170.7716  9.9067013
1170.7916  8.1184053
1170.8115  9.315251
1170.8315  9.765495
1170.8514  8.6895168
1170.8714  8.1803316
1170.8913  9.3298499
1170.9113  7.0670637
1170.9312  6.8285259
1170.9512  7.165551
1170.9711  7.5742368
1170.9911  8.296695
1171.011  8.2810028
1171.031  7.61631
1171.051  6.9657264
1171.0709  7.412884
1171.0909  7.4327692
1171.1108  8.7072719
1171.1308  7.2813265
1171.1507  7.971179
1171.1707  8.2757972
1171.1906  5.8349646
1171.2106  7.5906819
1171.2305  6.749127
1171.2505  6.7027037
1171.2704  7.777796
1171.2904  5.6786873
1171.3103  7.1734355
1171.3303  6.5402946
1171.3502  6.0051587
1171.3702  6.1322005
1171.3901  6.2920781
1171.4101  5.7910667
1171.43  5.934222
1171.45  7.255899
1171.4699  7.4192085
1171.4899  5.456451
1171.5099  6.12276
1171.5298  5.568027
1171.5498  7.015302
1171.5697  5.638404
1171.5897  8.128073
1171.6096  5.4667144
1171.6296  4.3218033
1171.6495  6.2695575
1171.6695  6.7157625
1171.6894  5.080887
1171.7094  6.06339
1171.7293  5.081436
1171.7493  5.547685
1171.7692  6.3214875
1171.7892  4.3910095
1171.8091  4.723383
1171.8291  3.7057185
1171.849  5.0211495
1171.869  6.253838
1171.8889  6.291324
1171.9089  3.373636
1171.9289  5.0445615
1171.9488  5.1546645
1171.9688  5.62865
1171.9887  6.316911
1172.0087  6.592536
1172.0286  6.315504
1172.0486  5.3353728
1172.0685  6.695733
1172.0885  5.731784
1172.1084  5.660539
1172.1284  6.650628
1172.1483  5.670665
1172.1683  4.7834775
1172.1882  5.451005
1172.2082  7.206939
1172.2281  6.15114
1172.2481  5.781493
1172.268  6.491856
1172.288  5.75621
1172.308  4.7646934
1172.3279  5.156352
1172.3479  6.0114646
1172.3678  5.9437063
1172.3878  4.5821455
1172.4077  5.42646
1172.4277  6.0413667
1172.4476  5.6426572
1172.4676  5.5732698
1172.4875  6.2291406
1172.5075  5.9761588
1172.5274  6.4477512
1172.5474  4.6373161
1172.5673  5.8200051
1172.5873  5.7076481
1172.6072  5.5909354
1172.6272  7.665147
1172.6471  5.1498714
1172.6671  5.5559973
1172.687  5.4140371
1172.707  5.704174
1172.7269  4.9558284
1172.7469  5.3692281
1172.7669  5.63977
1172.7868  4.6135431
1172.8068  5.7161767
1172.8267  6.1197102
1172.8467  5.3404322
1172.8666  4.5132864
1172.8866  5.9762633
1172.9065  4.929495
1172.9265  4.8318809
1172.9464  5.2266372
1172.9664  5.1018175
1172.9863  6.0381503
1173.0063  5.8057031
1173.0262  6.06723
1173.0462  5.8531451
1173.0661  4.9709928
1173.0861  5.3565767
1173.106  6.1437096
1173.126  5.637156
1173.1459  6.457664
1173.1659  5.8417392
1173.1859  4.7143423
1173.2058  6.1519252
1173.2258  5.0311674
1173.2457  4.9617417
1173.2657  5.2291397
1173.2856  4.9638875
1173.3056  6.059548
1173.3255  5.7394422
1173.3455  5.2862313
1173.3654  5.1616364
1173.3854  4.3309109
1173.4053  4.0829103
1173.4253  6.4781923
1173.4452  6.714414
1173.4652  6.8930235
1173.4851  6.168162
1173.5051  5.6307525
1173.525  5.895558
1173.545  5.122284
1173.5649  6.312561
1173.5849  5.992229
1173.6049  5.1250448
1173.6248  5.2159695
1173.6448  5.4788025
1173.6647  7.22125
1173.6847  5.457249
1173.7046  7.775406
1173.7246  6.492946
1173.7445  7.425363
1173.7645  5.225763
1173.7844  5.514291
1173.8044  6.522767
1173.8243  5.839314
1173.8443  8.926488
1173.8642  12.23577
1173.8842  5.24277
1173.9041  4.217045
1173.9241  6.5732165
1173.944  6.983739
1173.964  8.4204604
1173.9839  8.936118
1174.0039  9.095258
1174.0239  6.914388
1174.0438  8.1018624
1174.0638  9.5737235
1174.0837  6.8781408
1174.1037  8.671464
1174.1236  7.281291
1174.1436  7.37737
1174.1635  7.9724625
1174.1835  8.67711
1174.2034  8.613171
1174.2234  7.29024
1174.2433  6.960244
1174.2633  7.53519
1174.2832  6.907452
1174.3032  7.2698414
1174.3231  7.25112
1174.3431  7.7853394
1174.363  6.656951
1174.383  6.3616196
1174.4029  7.486505
1174.4229  6.8375158
1174.4429  6.0066996
1174.4628  7.2735894
1174.4828  7.0416372
1174.5027  7.0911138
1174.5227  7.4328243
1174.5426  6.5360597
1174.5626  6.2417446
1174.5825  6.671277
1174.6025  6.7247614
1174.6224  9.368513
1174.6424  5.5850718
1174.6623  6.965127
1174.6823  6.3821099
1174.7022  6.4375678
1174.7222  5.7817998
1174.7421  6.8477112
1174.7621  6.3076375
1174.782  5.6864601
1174.802  6.8594121
1174.8219  6.9877542
1174.8419  7.1960061
1174.8619  6.447552
1174.8818  6.1052474
1174.9018  6.4563298
1174.9217  5.4308744
1174.9417  5.2687875
1174.9616  5.0625728
1174.9816  7.0521908
1175.0015  5.6256813
1175.0215  6.0242
1175.0414  7.2075919
1175.0614  5.014598
1175.0813  5.6057198
1175.1013  5.3481213
1175.1212  6.0129664
1175.1412  6.457664
1175.1611  5.753228
1175.1811  5.1780481
1175.201  6.5984359
1175.221  6.0946662
1175.2409  6.1804151
1175.2609  5.8443326
1175.2808  5.5198429
1175.3008  5.4803265
1175.3208  4.3601964
1175.3407  4.6095936
1175.3607  5.5145688
1175.3806  5.1480639
1175.4006  5.3744432
1175.4205  7.3188738
1175.4405  6.714414
1175.4604  5.8406535
1175.4804  6.0258198
1175.5003  5.46675
1175.5203  5.568027
1175.5402  5.734731
1175.5602  5.025534
1175.5801  7.000822
1175.6001  5.3202846
1175.62  5.0669418
1175.64  5.42232
1175.6599  7.2934625
1175.6799  5.143614
1175.6998  5.635386
1175.7198  6.210644
1175.7398  5.206289
1175.7597  5.900055
1175.7797  5.4121745
1175.7996  5.847998
1175.8196  4.042602
1175.8395  5.0211495
1175.8595  4.622402
1175.8794  3.9320775
1175.8994  5.4821585

# values in kinetic energy
# Region:            Au4f 50pass MedArea
# Acquisition Date:  07/31/13 13:57:43
# Analysis Method:   XPS
# Analyzer:          PHOIBOS HSA3500 DLSEGD 150 R6[HWType 30:15] DLSEGD
# Analyzer Lens:     MediumArea:1.5kV
# Analyzer Slit:     5:7x20\2:open
# Scan Mode:         Snapshot (FAT)
# Number of Scans:   20
# Curves/Scan:       1
# Values/Curve:      8
# Dwell Time:        0.5
# Excitation Energy: 1253.6
# Kinetic Energy:    1165.55
# Pass Energy:       50
# Bias Voltage:      80
# Detector Voltage:  2100
# Eff. Workfunction: 4.387
# Source:            XRayDummy
# Comment:           
#
# Cycle: 0
#
# Cycle: 0, Curve: 0
#
# ColumnLabels: energy counts/s
#
1159.7872  250.69942
1159.887  177.58651
1159.9868  189.12264
1160.0865  220.93781
1160.1863  255.52181
1160.2861  215.38046
1160.3858  204.02861
1160.4856  230.82659
1160.5853  201.7588
1160.6851  241.35575
1160.7848  221.76404
1160.8846  229.68946
1160.9844  218.94032
1161.0841  225.15988
1161.1839  241.63753
1161.2836  249.4629
1161.3834  246.0783
1161.4832  251.44349
1161.5829  227.94592
1161.6827  217.89876
1161.7825  255.77654
1161.8822  226.36613
1161.982  226.24123
1162.0817  227.50575
1162.1815  261.77645
1162.2813  257.10933
1162.381  247.63984
1162.4808  284.42568
1162.5805  288.25574
1162.6803  281.86062
1162.7801  296.77566
1162.8798  251.43747
1162.9796  312.76201
1163.0794  279.37826
1163.1791  298.62632
1163.2789  395.28111
1163.3786  294.63067
1163.4784  337.14436
1163.5782  322.90608
1163.6779  394.64735
1163.7777  350.2837
1163.8774  417.71038
1163.9772  427.21258
1164.077  444.6168
1164.1767  587.62297
1164.2765  656.32807
1164.3763  739.78563
1164.476  734.37617
1164.5758  860.6679
1164.6755  938.8725
1164.7753  959.42786
1164.8751  1081.7453
1164.9748  1069.8904
1165.0746  1318.6214
1165.1743  1290.6663
1165.2741  1198.0413
1165.3739  1327.9383
1165.4736  1154.3169
1165.5734  1010.2753
1165.6732  1019.5906
1165.7729  975.50985
1165.8727  921.83154
1165.9724  722.95948
1166.0722  566.64849
1166.172  640.19712
1166.2717  486.5916
1166.3715  459.26578
1166.4712  423.07695
1166.571  376.38181
1166.6708  402.24705
1166.7705  384.58712
1166.8703  352.10529
1166.9701  382.84342
1167.0698  352.11123
1167.1696  361.9625
1167.2693  417.17581
1167.3691  477.37318
1167.4689  493.56153
1167.5686  456.2542
1167.6684  532.46145
1167.7681  591.19345
1167.8679  644.51695
1167.9677  790.23458
1168.0674  833.33513
1168.1672  778.42108
1168.267  869.72566
1168.3667  1098.9235
1168.4665  1496.9651
1168.5662  1354.025
1168.666  1589.8922
1168.7658  1570.3049
1168.8655  1729
1168.9653  1531.6543
1169.065  1562.1782
1169.1648  1410.4921
1169.2646  1044.5634
1169.3643  1197.6371
1169.4641  1229.5589
1169.5639  806.8623
1169.6636  668.82334
1169.7634  689.72914
1169.8632  391.31109
1169.9629  349.87688
1170.0627  322.41925
1170.1624  332.6789
1170.2622  248.48242
1170.362  215.19337
1170.4617  221.54653
1170.5615  181.12437
1170.6613  211.96912
1170.761  181.86028
1170.8608  166.15599
1170.9605  165.82722
1171.0603  158.19039
1171.1601  173.90402
1171.2598  157.53753
1171.3596  143.5831
1171.4593  150.47195
1171.5591  120.22971
1171.6589  131.15187
1171.7586  135.56909
1171.8584  136.68691
1171.9582  125.15068
1172.0579  122.60576
1172.1577  141.28894
1172.2574  134.87702
1172.3572  138.06308
1172.457  148.40012
1172.5567  145.97856
1172.6565  159.03718
1172.7562  165.85049
1172.856  139.26554
1172.9558  177.13059
1173.0555  156.40438
1173.1553  173.67087
1173.2551  231.95837
1173.3548  172.91963
1173.4546  189.06495
1173.5543  183.64701
1173.6541  206.98003
1173.7539  189.68613
1173.8536  192.59188
1173.9534  184.55405
1174.0531  171.30908
1174.1529  199.85448
1174.2527  187.06348
1174.3524  187.18667
1174.4522  164.49317
1174.552  166.38949
1174.6517  161.66999
1174.7515  147.27254
1174.8512  148.36906
1174.951  151.64171
1175.0508  176.99616
1175.1505  177.32147
1175.2503  168.59154
1175.35  180.23817
1175.4498  171.71728
1175.5496  157.62453
1175.6493  169.63711
1175.7491  175.59741
1175.8489  184.04342
1175.9486  164.3653
1176.0484  142.2804
1176.1481  180.48955
1176.2479  147.25368
1176.3477  169.7438
1176.4474  162.76246
1176.5472  155.50867
1176.6469  172.60801
1176.7467  184.37402
1176.8465  185.31412
1176.9462  200.90677
1177.046  188.43548
1177.1458  193.06333
1177.2455  220.06073
1177.3453  240.52764
1177.445  226.57526
1177.5448  191.78239
1177.6446  217.68599
1177.7443  199.90309
1177.8441  195.42627
1177.9438  204.69858
1178.0436  186.64903
1178.1434  146.33223
1178.2431  139.78798
1178.3429  161.87885
1178.4427  193.67393
1178.5424  164.59565
1178.6422  180.47502
1178.7419  169.3812
1178.8417  183.67105
1178.9415  164.86439
1179.0412  186.05626
1179.141  176.78948
1179.2407  142.61402
1179.3405  188.944
1179.4403  217.5248
1179.54  184.02123
1179.6398  162.77794
1179.7396  138.49614
1179.8394  88.6824
1179.9391  96.092313
1180.0389  101.58415
1180.1386  109.02101
1180.2384  92.445912
1180.3382  78.449741
1180.4379  88.571626
1180.5377  79.945926
1180.6374  89.966439
1180.7372  87.948822
1180.837  81.59151
1180.9367  77.41536
1181.0365  78.76146
1181.1362  83.78799
1181.236  80.64828
1181.3358  77.46078
1181.4355  85.089684
1181.5353  71.07668
1181.635  72.993137
1181.7348  75.841344
1181.8346  74.60129
1181.9343  72.750964
1182.0341  64.68388
1182.1339  87.22532
1182.2336  71.278761
1182.3334  76.539915
1182.4331  81.048568
1182.5329  74.027468
1182.6327  77.333279
1182.7324  80.507338
1182.8322  64.849397
1182.9319  74.732239
1183.0317  69.751907
1183.1315  72.564867
1183.2312  92.883546
1183.331  68.544063
1183.4308  72.95266
1183.5305  69.270991
1183.6303  78.962066
1183.73  66.077712
1183.8298  71.900968
1183.9296  67.825655
1184.0293  64.231964
1184.1291  79.51837
1184.2288  80.467679
1184.3286  78.296167
1184.4284  72.293177
1184.5281  77.820407
1184.6279  73.724306
1184.7277  68.924185
1184.8274  72.582817
1184.9272  67.422481
1185.0269  74.301513
1185.1267  77.409374
1185.2265  75.99098
1185.3262  85.620387
1185.426  77.093994
1185.5257  71.005784
1185.6255  78.763242
1185.7253  86.624297
1185.825  98.176673
1185.9248  81.518815
1186.0246  75.043055
1186.1243  87.317648
1186.2241  76.899144
1186.3238  83.914368
1186.4236  83.754119
1186.5234  74.02149
1186.6231  82.249453
1186.7229  78.038617
1186.8226  74.937614
1186.9224  78.615692
1187.0222  73.216909
1187.1219  65.659864
1187.2217  78.727345
1187.3215  84.904848
1187.4212  83.031993
1187.521  66.995729
1187.6207  77.19051
1187.7205  82.319458
1187.8203  84.740394
1187.92  81.143988
1188.0198  78.788912
1188.1195  63.062455
1188.2193  65.572188
1188.3191  73.42725
1188.4188  93.442975
1188.5186  71.383326
1188.6184  84.316788
1188.7181  76.22154
1188.8179  85.007604
1188.9176  75.689277
1189.0174  79.855103
1189.1172  75.124282
1189.2169  63.109509
1189.3167  97.447494
1189.4164  110.93765
1189.5162  96.466968
1189.616  95.305217
1189.7157  69.095206
1189.8155  54.983088
1189.9153  58.628018
1190.015  62.244684
1190.1148  75.814164
1190.2146  69.906096
1190.3143  60.467558
1190.4141  66.487454
1190.5138  57.915939
1190.6136  68.769527
1190.7134  64.556958
1190.8131  64.63457
1190.9129  67.408545
1191.0127  69.750615
1191.1124  73.475622
1191.2122  71.19375
1191.3119  72.40899
1191.4117  66.425598
1191.5115  62.867824
1191.6112  56.881597
1191.711  65.421216
1191.8107  68.097083
1191.9105  62.575339
1192.0103  59.701353
1192.11  71.95084
1192.2098  65.003232
1192.3096  66.346727
1192.4093  73.963903
1192.5091  73.756636
1192.6088  75.014172
1192.7086  78.089431
1192.8084  63.461853
1192.9081  77.853112
1193.0079  71.456789
1193.1076  74.285155
1193.2074  92.68315
1193.3072  72.0982
1193.4069  74.643616
1193.5067  70.346627
1193.6065  82.38457
1193.7062  72.398189
1193.806  79.760272
1193.9057  72.72335
1194.0055  65.805576
1194.1053  84.514732
1194.205  90.710598
1194.3048  85.899494
1194.4045  79.466078
1194.5043  88.483093
1194.6041  85.502746
1194.7038  79.466471
1194.8036  85.64941
1194.9034  70.64055
1195.0031  93.844839
1195.1029  95.681587
1195.2026  82.96184
1195.3024  93.94056
1195.4022  88.344135
1195.5019  86.037417
1195.6017  90.343471
1195.7014  97.428846
1195.8012  91.315405
1195.901  88.776734
1196.0007  75.352192
1196.1005  94.26337
1196.2003  87.534132
1196.3  84.001417
1196.3998  84.281427
1196.4995  83.949265
1196.5993  87.596113
1196.6991  84.445436
1196.7988  82.718947
1196.8986  83.203813
1196.9983  76.894097
1197.0981  81.574881
1197.1979  89.01333
1197.2976  90.752886
1197.3974  88.39908
1197.4972  76.200524
1197.5969  87.03066
1197.6967  82.97452
1197.7964  83.960916
1197.8962  87.64041
1197.996  80.450124
1198.0957  71.653007
1198.1955  66.963113
1198.2952  72.97539
1198.395  90.843325
1198.4948  76.401486
1198.5945  83.888784
1198.6943  76.644993
1198.7941  88.76296
1198.8938  72.149244
1198.9936  74.749278
1199.0933  79.397819
1199.1931  56.821017
1199.2929  84.429699
1199.3926  101.14903
1199.4924  94.36986
1199.5921  96.148626
1199.6919  70.31813
1199.7917  47.001672
1199.8915  55.475974
1199.9912  55.362846
1200.091  63.605764
1200.1908  56.839536
1200.2905  51.57527
1200.3903  61.436287
1200.49  55.523542
1200.5898  59.857189
1200.6895  62.722302
1200.7893  58.68863
1200.8891  58.28145
1200.9888  59.071095
1201.0886  63.046068
1201.1884  60.71403
1201.2881  56.916834
1201.3879  63.643374
1201.4876  55.960372
1201.5874  52.362506
1201.6872  59.942592
1201.7869  58.340771
1201.8867  57.725275
1201.9864  55.07472
1202.0862  61.09792
1202.186  59.008698
1202.2857  56.517583
1202.3855  60.833657
1202.4853  55.520601
1202.585  56.282928
1202.6848  61.343188
1202.7845  47.906762
1202.8843  62.24875
1202.9841  54.40797
1203.0838  57.786031
1203.1836  73.244738
1203.2833  56.576052
1203.3831  59.425015
1203.4829  51.200297
1203.5826  63.316331
1203.6824  52.503052
1203.7822  57.427396
1203.8819  52.613118
1203.9817  55.219462
1204.0814  60.379763
1204.1812  57.985339
1204.281  63.089513
1204.3807  56.819052
1204.4805  58.214824
1204.5802  56.972748
1204.68  52.551696
1204.7798  59.769125
1204.8795  51.646091
1204.9793  58.537793
1205.0791  56.346823
1205.1788  53.18508
1205.2786  60.466375
1205.3783  54.332079
1205.4781  52.153956
1205.5779  58.873534
1205.6776  62.196621
1205.7774  64.980244
1205.8771  61.603795
1205.9769  52.012334
1206.0767  65.091338
1206.1764  51.12975
1206.2762  54.230966
1206.376  56.070439
1206.4757  54.404207
1206.5755  57.565706
1206.6752  56.59357
1206.775  51.339878
1206.8748  56.733883
1206.9745  56.383557
1207.0743  51.41134
1207.174  55.979494
1207.2738  65.627982
1207.3736  62.08983
1207.4733  54.279826
1207.5731  58.60356
1207.6729  58.628049
1207.7726  63.917196
1207.8724  62.267592
1207.9721  59.566316
1208.0719  50.957588
1208.1717  49.477196
1208.2714  52.980585
1208.3712  70.334975
1208.4709  55.701576
1208.5707  59.20722
1208.6705  55.613494
1208.7702  62.134072
1208.87  59.674842
1208.9698  56.368308
1209.0695  57.130442
1209.1693  47.388279
1209.269  71.783841
1209.3688  89.185168
1209.4686  69.728841
1209.5683  83.497491
1209.6681  59.923276
1209.7679  38.355138
1209.8676  45.209317
1209.9674  47.453868
1210.0671  58.478236
1210.1669  52.157352
1210.2667  41.102131
1210.3664  54.388147
1210.4662  48.346352
1210.566  51.306162
1210.6657  54.695682
1210.7655  55.38533
1210.8652  50.034075
1210.965  50.72772
1211.0648  53.554002
1211.1645  58.43583
1211.2643  49.170756
1211.3641  55.180776
1211.4638  49.853784
1211.5636  48.039898
1211.6633  52.530336
1211.7631  50.752529
1211.8629  49.261437
1211.9626  48.401693
1212.0624  54.36509
1212.1621  53.014164
1212.2619  53.787265
1212.3617  52.993294
1212.4614  52.09006
1212.5612  54.499
1212.661  60.716324
1212.7607  46.44619
1212.8605  56.766137
1212.9602  52.99959
1213.06  57.864226
1213.1598  69.236818
1213.2595  50.99098
1213.3593  58.056146
1213.459  50.626625
1213.5588  59.730851
1213.6586  51.138403
1213.7583  59.061509
1213.8581  53.577815
1213.9579  52.787516
1214.0576  65.122073
1214.1574  64.582474
1214.2571  67.796334
1214.3569  62.621849
1214.4567  63.288198
1214.5564  59.066693
1214.6562  62.614787
1214.7559  58.673218
1214.8557  52.901923
1214.9555  64.714221
1215.0552  62.647586
1215.155  59.89776
1215.2548  68.689802
1215.3545  62.878698
1215.4543  55.143673
1215.554  57.989547
1215.6538  60.787332
1215.7536  63.264927
1215.8533  59.479526
1215.9531  54.949137
1216.0528  66.579707
1216.1526  61.846546
1216.2524  65.373123
1216.3521  61.431405
1216.4519  58.295895
1216.5517  60.417258
1216.6514  64.602094
1216.7512  65.718427
1216.8509  65.027795
1216.9507  60.142461
1217.0505  54.661003
1217.1502  67.551227
1217.25  64.111824
1217.3497  73.6659
1217.4495  57.411354
1217.5493  64.398315
1217.649  65.178669
1217.7488  63.026364
1217.8486  69.376884
1217.9483  66.44848
1218.0481  51.250448
1218.1478  49.6759
1218.2476  49.817565
1218.3474  62.824875
1218.4471  49.805238
1218.5469  55.64052
1218.6466  53.496229
1218.7464  62.987562
1218.8462  54.954798
1218.9459  57.593706
1219.0457  49.707983
1219.1454  39.752253
1219.2452  53.930865
1219.345  78.85274
1219.4447  68.680287
1219.5445  67.47272
1219.6443  48.611229
1219.7441  33.477606
1219.8438  38.094703
1219.9436  41.804598
1220.0433  47.979012
1220.1431  42.792984
1220.2429  36.75479
1220.3426  48.749635
1220.4424  38.577398
1220.5421  51.667473
1220.6419  44.490408
1220.7417  44.48444
1220.8414  44.42586
1220.9412  43.60804
1221.0409  41.835402
1221.1407  47.95611
1221.2405  46.925516
1221.3402  45.674844
1221.44  38.441472
1221.5398  38.608752
1221.6395  42.862176
1221.7393  42.375898
1221.839  43.270182
1221.9388  41.461744
1222.0386  44.61756
1222.1383  44.490685
1222.2381  48.235618
1222.3378  46.664327
1222.4376  45.770642
1222.5374  45.222575
1222.6371  47.552165
1222.7369  37.682758
1222.8367  46.644389
1222.9364  40.250038
1223.0362  44.649288
1223.1359  54.207118
1223.2357  38.732836
1223.3355  46.622064
1223.4352  41.878114
1223.535  49.055896
1223.6347  42.232277
1223.7345  43.265084
1223.8343  44.82133
1223.934  41.772235
1224.0338  47.677148
1224.1336  48.784073
1224.2333  52.951743
1224.3331  43.843354
1224.4328  47.380159
1224.5326  49.731189
1224.6324  43.92619
1224.7321  45.100821
1224.8319  40.657561
1224.9316  44.802153
1225.0314  46.265603
1225.1312  45.69786
1225.2309  55.048588
1225.3307  47.180826
1225.4305  43.350899
1225.5302  46.93971
1225.63  48.667447
1225.7297  51.560411
1225.8295  45.937313
1225.9293  41.733522
1226.029  57.054145
1226.1288  43.358028
1226.2285  44.655675
1226.3283  51.500434
1226.4281  42.96741
1226.5278  47.941718
1226.6276  45.826554
1226.7274  47.026313
1226.8271  46.145911
1226.9269  42.410241
1227.0266  43.245519
1227.1264  52.320057
1227.2262  53.498718
1227.3259  49.987575
1227.4257  44.600556
1227.5254  53.902155
1227.6252  44.980924
1227.725  49.997946
1227.8247  55.1583
1227.9245  50.666966
1228.0243  39.43844
1228.124  38.64785
1228.2238  41.57112
1228.3235  55.17035
1228.4233  48.29979
1228.5231  53.5005
1228.6228  44.744867
1228.7226  53.087078
1228.8223  46.694721
1228.9221  51.875182
1229.0219  44.534754
1229.1216  44.9178
1229.2214  57.278298
1229.3212  80.484176
1229.4209  52.4277
1229.5207  53.134767
1229.6204  44.330995
1229.7202  31.03884
1229.82  35.48301
1229.9197  42.729024
1230.0195  42.485232
1230.1193  41.595216
1230.219  38.928461
1230.3188  38.529832
1230.4186  38.378032
1230.5183  44.079942
1230.6181  39.330438
1230.7178  43.16312
1230.8176  43.876035
1230.9174  40.49318
1231.0171  46.522842
1231.1169  46.47528
1231.2166  43.445394
1231.3164  44.399658
1231.4162  36.939852
1231.5159  37.135136
1231.6157  43.614144
1231.7155  40.207829
1231.8152  39.656408
1231.915  36.123322
1232.0147  41.30139
1232.1145  40.463107
1232.2143  40.863759
1232.314  44.113847
1232.4138  43.06232
1232.5135  44.776593
1232.6133  43.343216
1232.7131  37.609729
1232.8128  38.800034
1232.9126  40.546539
1233.0124  40.192179
1233.1121  47.59405
1233.2119  36.846967
1233.3116  45.253195
1233.4114  38.794623
1233.5112  42.699817
1233.6109  37.779214
1233.7107  42.642565
1233.8104  42.14986
1233.9102  40.198624
1234.01  42.76547
1234.1097  45.57231
1234.2095  39.736436
1234.3093  41.103144
1234.409  41.188923
1234.5088  42.402382
1234.6085  38.894645
1234.7083  42.824705
1234.8081  40.736051
1234.9078  45.816193
1235.0076  43.475265
1235.1073  41.7391
1235.2071  48.663339
1235.3069  45.349408
1235.4066  37.786704
1235.5064  43.49216
1235.6062  48.855352
1235.7059  47.927975
1235.8057  45.848802
1235.9054  41.192532
1236.0052  51.696017
1236.105  39.431263
1236.2047  38.214116
1236.3045  46.403122
1236.4042  43.68221
1236.504  46.248609
1236.6038  45.381636
1236.7035  39.49872
1236.8033  44.998881
1236.9031  39.223344
1237.0028  38.079388
1237.1026  51.133213
1237.2023  46.56771
1237.3021  40.305771
1237.4019  41.089448
1237.5016  47.01405
1237.6014  48.256234
1237.7011  45.766494
1237.8009  48.171582
1237.9007  46.751252
1238.0004  38.65748
1238.1002  39.939424
1238.2  43.039665
1238.2997  48.093525
1238.3995  44.285262
1238.4992  52.501824
1238.599  47.003283
1238.6988  54.964756
1238.7985  43.323261
1238.8983  49.832852
1238.998  44.084908
1239.0978  37.730952
1239.1976  52.815054
1239.2973  69.064124
1239.3971  46.660653
1239.4969  62.412266

